Time Step,Stress Ratio,Stress Ratio Change
1,0.319722458,0
2,0.319758508,3.61E-05
3,0.319799208,4.07E-05
4,0.3198301,3.09E-05
5,0.319862958,3.29E-05
6,0.3198938,3.08E-05
7,0.319918692,2.49E-05
8,0.319940375,2.17E-05
9,0.319963008,2.26E-05
10,0.319979892,1.69E-05
11,0.319997342,1.75E-05
12,0.320017092,1.97E-05
13,0.320032592,1.55E-05
14,0.320044625,1.20E-05
15,0.320060842,1.62E-05
16,0.32006885,8.01E-06
17,0.320083467,1.46E-05
18,0.320093558,1.01E-05
19,0.320099375,5.82E-06
20,0.320111967,1.26E-05
21,0.320118658,6.69E-06
22,0.320127733,9.08E-06
23,0.320133283,5.55E-06
24,0.320144058,1.08E-05
25,0.320148375,4.32E-06
26,0.320157292,8.92E-06
27,0.320159092,1.80E-06
28,0.320165025,5.93E-06
29,0.320172275,7.25E-06
30,0.320175083,2.81E-06
31,0.320184092,9.01E-06
32,0.320185708,1.62E-06
33,0.320193583,7.87E-06
34,0.320200667,7.08E-06
35,0.320202017,1.35E-06
36,0.320210567,8.55E-06
37,0.320216025,5.46E-06
38,0.320218358,2.33E-06
39,0.3202277,9.34E-06
40,0.320232617,4.92E-06
41,0.32023475,2.13E-06
42,0.320243917,9.17E-06
43,0.32024915,5.23E-06
44,0.320249958,8.08E-07
45,0.320257,7.04E-06
46,0.320265083,8.08E-06
47,0.320266117,1.03E-06
48,0.320271117,5.00E-06
49,0.320282425,1.13E-05
50,0.32028635,3.93E-06
51,0.320288558,2.21E-06
52,0.320296517,7.96E-06
53,0.320307025,1.05E-05
54,0.320308108,1.08E-06
55,0.320313225,5.12E-06
56,0.320321867,8.64E-06
57,0.320327258,5.39E-06
58,0.320328142,8.84E-07
59,0.320335092,6.95E-06
60,0.320345325,1.02E-05
61,0.320347558,2.23E-06
62,0.320351842,4.28E-06
63,0.320359633,7.79E-06
64,0.320366983,7.35E-06
65,0.320369875,2.89E-06
66,0.320375375,5.50E-06
67,0.320384783,9.41E-06
68,0.320390117,5.33E-06
69,0.320390133,1.60E-08
70,0.320397033,6.90E-06
71,0.320405592,8.56E-06
72,0.320407758,2.17E-06
73,0.320412433,4.68E-06
74,0.320420975,8.54E-06
75,0.320430225,9.25E-06
76,0.3204314,1.17E-06
77,0.320436042,4.64E-06
78,0.320448558,1.25E-05
79,0.320452442,3.88E-06
80,0.3204581,5.66E-06
81,0.3204688,1.07E-05
82,0.320471042,2.24E-06
83,0.320474342,3.30E-06
84,0.320484042,9.70E-06
85,0.320491825,7.78E-06
86,0.320492333,5.08E-07
87,0.320498483,6.15E-06
88,0.3205088,1.03E-05
89,0.320512825,4.03E-06
90,0.32051515,2.33E-06
91,0.320522542,7.39E-06
92,0.320534667,1.21E-05
93,0.320535508,8.41E-07
94,0.320537558,2.05E-06
95,0.3205463,8.74E-06
96,0.320555367,9.07E-06
97,0.320557658,2.29E-06
98,0.320561083,3.43E-06
99,0.320570167,9.08E-06
100,0.3205765,6.33E-06
101,0.320578,1.50E-06
102,0.320584833,6.83E-06
103,0.320595667,1.08E-05
104,0.320599583,3.92E-06
105,0.320602083,2.50E-06
106,0.3206105,8.42E-06
107,0.3206195,9.00E-06
108,0.320621167,1.67E-06
109,0.320623583,2.42E-06
110,0.32063275,9.17E-06
111,0.320640333,7.58E-06
112,0.320641417,1.08E-06
113,0.32064675,5.33E-06
114,0.320657917,1.12E-05
115,0.320664083,6.17E-06
116,0.320665083,1.00E-06
117,0.320671833,6.75E-06
118,0.320682333,1.05E-05
119,0.320685583,3.25E-06
120,0.320686333,7.50E-07
121,0.320695833,9.50E-06
122,0.320705583,9.75E-06
123,0.320706333,7.50E-07
124,0.320712333,6.00E-06
125,0.320721,8.67E-06
126,0.320726833,5.83E-06
127,0.3207275,6.67E-07
128,0.320734583,7.08E-06
129,0.320745667,1.11E-05
130,0.320748833,3.17E-06
131,0.320751667,2.83E-06
132,0.320759583,7.92E-06
133,0.320769417,9.83E-06
134,0.32077,5.83E-07
135,0.320774167,4.17E-06
136,0.320785333,1.12E-05
137,0.320790667,5.33E-06
138,0.320791667,1.00E-06
139,0.32080025,8.58E-06
140,0.32081,9.75E-06
141,0.32081,0
142,0.320812917,2.92E-06
143,0.320823417,1.05E-05
144,0.320830083,6.67E-06
145,0.320832417,2.33E-06
146,0.32084,7.58E-06
147,0.320851583,1.16E-05
148,0.320850583,-10.00E-07
149,0.320854833,4.25E-06
150,0.320866833,1.20E-05
151,0.32087,3.17E-06
152,0.320872333,2.33E-06
153,0.320881417,9.08E-06
154,0.320890583,9.17E-06
155,0.320890833,2.50E-07
156,0.320896667,5.83E-06
157,0.320908167,1.15E-05
158,0.320908667,5.00E-07
159,0.320911667,3.00E-06
160,0.320923167,1.15E-05
161,0.320927333,4.17E-06
162,0.320928083,7.50E-07
163,0.320931333,3.25E-06
164,0.32093175,4.17E-07
165,0.320931083,-6.67E-07
166,0.3209415,1.04E-05
167,0.32094775,6.25E-06
168,0.320947,-7.50E-07
169,0.320956833,9.83E-06
170,0.32096575,8.92E-06
171,0.32096575,0
172,0.320974,8.25E-06
173,0.32098275,8.75E-06
174,0.320982,-7.50E-07
175,0.320989917,7.92E-06
176,0.32100075,1.08E-05
177,0.321001167,4.17E-07
178,0.321007417,6.25E-06
179,0.321018333,1.09E-05
180,0.321021167,2.83E-06
181,0.321023917,2.75E-06
182,0.32103575,1.18E-05
183,0.32103775,2.00E-06
184,0.321039833,2.08E-06
185,0.3210515,1.17E-05
186,0.321058333,6.83E-06
187,0.32105725,-1.08E-06
188,0.321068583,1.13E-05
189,0.321076333,7.75E-06
190,0.321076,-3.33E-07
191,0.321085833,9.83E-06
192,0.321096083,1.02E-05
193,0.321097,9.17E-07
194,0.321104917,7.92E-06
195,0.321113083,8.17E-06
196,0.321115583,2.50E-06
197,0.321121667,6.08E-06
198,0.321130833,9.17E-06
199,0.32113125,4.17E-07
200,0.321136167,4.92E-06
201,0.321149583,1.34E-05
202,0.321150583,10.00E-07
203,0.32115575,5.17E-06
204,0.3211655,9.75E-06
205,0.321168083,2.58E-06
206,0.3211645,-3.58E-06
207,0.321175,1.05E-05
208,0.321176917,1.92E-06
209,0.3211825,5.58E-06
210,0.321190333,7.83E-06
211,0.321193,2.67E-06
212,0.321201583,8.58E-06
213,0.321208,6.42E-06
214,0.3212115,3.50E-06
215,0.321221667,1.02E-05
216,0.321224917,3.25E-06
217,0.321230417,5.50E-06
218,0.32123575,5.33E-06
219,0.32123775,2.00E-06
220,0.32124625,8.50E-06
221,0.321253,6.75E-06
222,0.321254417,1.42E-06
223,0.321261333,6.92E-06
224,0.321269,7.67E-06
225,0.321271167,2.17E-06
226,0.321280417,9.25E-06
227,0.32129075,1.03E-05
228,0.32129225,1.50E-06
229,0.3212985,6.25E-06
230,0.321310583,1.21E-05
231,0.321312333,1.75E-06
232,0.321316917,4.58E-06
233,0.321327083,1.02E-05
234,0.321328083,10.00E-07
235,0.321333667,5.58E-06
236,0.321344083,1.04E-05
237,0.321347,2.92E-06
238,0.321351167,4.17E-06
239,0.32136175,1.06E-05
240,0.321363583,1.83E-06
241,0.321368,4.42E-06
242,0.32137975,1.18E-05
243,0.321380083,3.33E-07
244,0.321385833,5.75E-06
245,0.321396,1.02E-05
246,0.321397667,1.67E-06
247,0.321400833,3.17E-06
248,0.321412417,1.16E-05
249,0.321415417,3.00E-06
250,0.321417417,2.00E-06
251,0.321427417,1.00E-05
252,0.32142975,2.33E-06
253,0.321433833,4.08E-06
254,0.321445333,1.15E-05
255,0.321446167,8.34E-07
256,0.3214525,6.33E-06
257,0.32146175,9.25E-06
258,0.321463083,1.33E-06
259,0.321468917,5.83E-06
260,0.321479083,1.02E-05
261,0.321480833,1.75E-06
262,0.32148725,6.42E-06
263,0.321496167,8.92E-06
264,0.3214985,2.33E-06
265,0.32150425,5.75E-06
266,0.321513083,8.83E-06
267,0.321514667,1.58E-06
268,0.3215205,5.83E-06
269,0.321530083,9.58E-06
270,0.321531,9.17E-07
271,0.321537417,6.42E-06
272,0.321547833,1.04E-05
273,0.32154825,4.17E-07
274,0.321555167,6.92E-06
275,0.32156425,9.08E-06
276,0.321564917,6.67E-07
277,0.321570167,5.25E-06
278,0.321579833,9.67E-06
279,0.321580083,2.50E-07
280,0.321587167,7.08E-06
281,0.321596917,9.75E-06
282,0.321600167,3.25E-06
283,0.321604167,4.00E-06
284,0.321614083,9.92E-06
285,0.321616083,2.00E-06
286,0.321621583,5.50E-06
287,0.321631167,9.58E-06
288,0.3216215,-9.67E-06
289,0.321627167,5.67E-06
290,0.321637167,1.00E-05
291,0.321638,8.33E-07
292,0.321643583,5.58E-06
293,0.321653917,1.03E-05
294,0.321657667,3.75E-06
295,0.321662167,4.50E-06
296,0.32167075,8.58E-06
297,0.32167425,3.50E-06
298,0.32167925,5.00E-06
299,0.321687667,8.42E-06
300,0.321692333,4.67E-06
301,0.321695083,2.75E-06
302,0.321703667,8.58E-06
303,0.321709167,5.50E-06
304,0.321710417,1.25E-06
305,0.321716917,6.50E-06
306,0.321727,1.01E-05
307,0.321727333,3.33E-07
308,0.32173275,5.42E-06
309,0.321742917,1.02E-05
310,0.321743833,9.16E-07
311,0.321749167,5.33E-06
312,0.321758583,9.42E-06
313,0.321761333,2.75E-06
314,0.321765167,3.83E-06
315,0.321775667,1.05E-05
316,0.321778333,2.67E-06
317,0.321783167,4.83E-06
318,0.321792833,9.67E-06
319,0.32179375,9.17E-07
320,0.321801333,7.58E-06
321,0.321809417,8.08E-06
322,0.321811333,1.92E-06
323,0.321816667,5.33E-06
324,0.321824667,8.00E-06
325,0.321828667,4.00E-06
326,0.32183325,4.58E-06
327,0.321840917,7.67E-06
328,0.321844833,3.92E-06
329,0.321849167,4.33E-06
330,0.321858,8.83E-06
331,0.321863167,5.17E-06
332,0.321865833,2.67E-06
333,0.321873333,7.50E-06
334,0.321878083,4.75E-06
335,0.321881167,3.08E-06
336,0.321888917,7.75E-06
337,0.321896667,7.75E-06
338,0.321895667,-1.00E-06
339,0.321903833,8.17E-06
340,0.321910083,6.25E-06
341,0.321910833,7.50E-07
342,0.321917917,7.08E-06
343,0.321925167,7.25E-06
344,0.3219275,2.33E-06
345,0.321935,7.50E-06
346,0.321943,8.00E-06
347,0.32194325,2.50E-07
348,0.321951833,8.58E-06
349,0.321960917,9.08E-06
350,0.321961333,4.16E-07
351,0.3219685,7.17E-06
352,0.32197675,8.25E-06
353,0.321978333,1.58E-06
354,0.321984333,6.00E-06
355,0.321992833,8.50E-06
356,0.321993333,5.00E-07
357,0.322,6.67E-06
358,0.32200725,7.25E-06
359,0.322008167,9.17E-07
360,0.32201425,6.08E-06
361,0.322021833,7.58E-06
362,0.322023,1.17E-06
363,0.322029583,6.58E-06
364,0.322037917,8.33E-06
365,0.322039583,1.67E-06
366,0.322047167,7.58E-06
367,0.322053417,6.25E-06
368,0.322061167,7.75E-06
369,0.322067,5.83E-06
370,0.322067083,8.30E-08
371,0.322069417,2.33E-06
372,0.322076083,6.67E-06
373,0.322083667,7.58E-06
374,0.322087167,3.50E-06
375,0.32209225,5.08E-06
376,0.322101917,9.67E-06
377,0.322105667,3.75E-06
378,0.322109083,3.42E-06
379,0.32211875,9.67E-06
380,0.322124667,5.92E-06
381,0.322127417,2.75E-06
382,0.322135917,8.50E-06
383,0.322141583,5.67E-06
384,0.32214425,2.67E-06
385,0.322153583,9.33E-06
386,0.3221605,6.92E-06
387,0.32216225,1.75E-06
388,0.32217075,8.50E-06
389,0.3221765,5.75E-06
390,0.322177917,1.42E-06
391,0.32218575,7.83E-06
392,0.322194083,8.33E-06
393,0.322194417,3.34E-07
394,0.322203083,8.67E-06
395,0.322204,9.17E-07
396,0.322206,2.00E-06
397,0.322211667,5.67E-06
398,0.322218083,6.42E-06
399,0.322220667,2.58E-06
400,0.322229,8.33E-06
401,0.322236417,7.42E-06
402,0.322239417,3.00E-06
403,0.3222465,7.08E-06
404,0.322252167,5.67E-06
405,0.322253667,1.50E-06
406,0.322263667,10.00E-06
407,0.322269167,5.50E-06
408,0.322272,2.83E-06
409,0.322280667,8.67E-06
410,0.322285833,5.17E-06
411,0.322288333,2.50E-06
412,0.322297167,8.83E-06
413,0.322302167,5.00E-06
414,0.322305333,3.17E-06
415,0.322312667,7.33E-06
416,0.322319417,6.75E-06
417,0.322322333,2.92E-06
418,0.322331333,9.00E-06
419,0.322334667,3.33E-06
420,0.322336583,1.92E-06
421,0.322333917,-2.67E-06
422,0.32233925,5.33E-06
423,0.322342333,3.08E-06
424,0.322352167,9.83E-06
425,0.32235625,4.08E-06
426,0.322359667,3.42E-06
427,0.322367667,8.00E-06
428,0.322372083,4.42E-06
429,0.322376,3.92E-06
430,0.322384667,8.67E-06
431,0.322388333,3.67E-06
432,0.322392083,3.75E-06
433,0.322401583,9.50E-06
434,0.322404417,2.83E-06
435,0.322410333,5.92E-06
436,0.322417333,7.00E-06
437,0.322421167,3.83E-06
438,0.322426083,4.92E-06
439,0.322434333,8.25E-06
440,0.322437917,3.58E-06
441,0.322444167,6.25E-06
442,0.322452333,8.17E-06
443,0.322454667,2.33E-06
444,0.322459083,4.42E-06
445,0.322467667,8.58E-06
446,0.322470917,3.25E-06
447,0.3224765,5.58E-06
448,0.322484917,8.42E-06
449,0.322488,3.08E-06
450,0.32249475,6.75E-06
451,0.322502417,7.67E-06
452,0.322504167,1.75E-06
453,0.322510083,5.92E-06
454,0.322518083,8.00E-06
455,0.322520333,2.25E-06
456,0.322527083,6.75E-06
457,0.3225345,7.42E-06
458,0.322538083,3.58E-06
459,0.3225455,7.42E-06
460,0.322553583,8.08E-06
461,0.322553917,3.34E-07
462,0.322561333,7.42E-06
463,0.322568667,7.33E-06
464,0.322571417,2.75E-06
465,0.322578,6.58E-06
466,0.322585167,7.17E-06
467,0.322587167,2.00E-06
468,0.322595417,8.25E-06
469,0.322601333,5.92E-06
470,0.322603333,2.00E-06
471,0.322609167,5.83E-06
472,0.322616667,7.50E-06
473,0.322618083,1.42E-06
474,0.3226255,7.42E-06
475,0.322633,7.50E-06
476,0.322634167,1.17E-06
477,0.322640833,6.67E-06
478,0.3226465,5.67E-06
479,0.322648167,1.67E-06
480,0.322655333,7.17E-06
481,0.322663,7.67E-06
482,0.322664167,1.17E-06
483,0.322673,8.83E-06
484,0.322680833,7.83E-06
485,0.32268275,1.92E-06
486,0.32269,7.25E-06
487,0.322699917,9.92E-06
488,0.322700667,7.50E-07
489,0.322709083,8.42E-06
490,0.322719667,1.06E-05
491,0.32272025,5.83E-07
492,0.32272725,7.00E-06
493,0.322735417,8.17E-06
494,0.322735917,5.00E-07
495,0.32274325,7.33E-06
496,0.322752,8.75E-06
497,0.3227545,2.50E-06
498,0.32276225,7.75E-06
499,0.32277175,9.50E-06
500,0.322772,2.50E-07
501,0.322779167,7.17E-06
502,0.322786583,7.42E-06
503,0.32278775,1.17E-06
504,0.322795917,8.17E-06
505,0.322803833,7.92E-06
506,0.322806417,2.58E-06
507,0.322812917,6.50E-06
508,0.322819583,6.67E-06
509,0.322820667,1.08E-06
510,0.322829083,8.42E-06
511,0.322833167,4.08E-06
512,0.322834333,1.17E-06
513,0.3228415,7.17E-06
514,0.322848667,7.17E-06
515,0.322851417,2.75E-06
516,0.322858833,7.42E-06
517,0.32286425,5.42E-06
518,0.322866833,2.58E-06
519,0.322874667,7.83E-06
520,0.322879083,4.42E-06
521,0.3228805,1.42E-06
522,0.322887667,7.17E-06
523,0.322890333,2.67E-06
524,0.322892417,2.08E-06
525,0.322896417,4.00E-06
526,0.32289475,-1.67E-06
527,0.322897417,2.67E-06
528,0.322909417,1.20E-05
529,0.3229135,4.08E-06
530,0.322917917,4.42E-06
531,0.322926,8.08E-06
532,0.322928667,2.67E-06
533,0.322936,7.33E-06
534,0.322943917,7.92E-06
535,0.322946833,2.92E-06
536,0.322955167,8.33E-06
537,0.322962917,7.75E-06
538,0.322965583,2.67E-06
539,0.32297375,8.17E-06
540,0.32298175,8.00E-06
541,0.32298375,2.00E-06
542,0.322991917,8.17E-06
543,0.323,8.08E-06
544,0.3230015,1.50E-06
545,0.323011333,9.83E-06
546,0.323018333,7.00E-06
547,0.323016417,-1.92E-06
548,0.32302425,7.83E-06
549,0.323031417,7.17E-06
550,0.323033583,2.17E-06
551,0.32304325,9.67E-06
552,0.323048917,5.67E-06
553,0.3230515,2.58E-06
554,0.323059083,7.58E-06
555,0.323066917,7.83E-06
556,0.323069583,2.67E-06
557,0.32307675,7.17E-06
558,0.323082917,6.17E-06
559,0.323086833,3.92E-06
560,0.323094917,8.08E-06
561,0.323099833,4.92E-06
562,0.323104167,4.33E-06
563,0.323105,8.33E-07
564,0.322635917,-0.000469083
565,0.3218245,-0.000811417
566,0.321999083,0.000174583
567,0.322234333,0.00023525
568,0.32208325,-0.000151083
569,0.3220035,-7.97E-05
570,0.32212025,0.00011675
571,0.322250167,0.000129917
572,0.322314667,6.45E-05
573,0.32238775,7.31E-05
574,0.322492083,0.000104333
575,0.322565,7.29E-05
576,0.3226215,5.65E-05
577,0.322680833,5.93E-05
578,0.32274375,6.29E-05
579,0.322785167,4.14E-05
580,0.322822167,3.70E-05
581,0.322859583,3.74E-05
582,0.322885917,2.63E-05
583,0.322909,2.31E-05
584,0.322934583,2.56E-05
585,0.322948667,1.41E-05
586,0.322963,1.43E-05
587,0.322978833,1.58E-05
588,0.322990417,1.16E-05
589,0.322756833,-0.000233584
590,0.3216235,-0.001133333
591,0.320348083,-0.001275417
592,0.3184075,-0.001940583
593,0.319323083,0.000915583
594,0.32029125,0.000968167
595,0.320424583,0.000133333
596,0.320856083,0.0004315
597,0.321136333,0.00028025
598,0.321703333,0.000567
599,0.32204825,0.000344917
600,0.322145917,9.77E-05
601,0.322310167,0.00016425
602,0.322322667,1.25E-05
603,0.322375083,5.24E-05
604,0.322495333,0.00012025
605,0.322556083,6.07E-05
606,0.322589667,3.36E-05
607,0.322628417,3.87E-05
608,0.322684917,5.65E-05
609,0.322747833,6.29E-05
610,0.32278375,3.59E-05
611,0.322822667,3.89E-05
612,0.32284225,1.96E-05
613,0.32285675,1.45E-05
614,0.3228785,2.17E-05
615,0.322899167,2.07E-05
616,0.322912583,1.34E-05
617,0.32292875,1.62E-05
618,0.3229425,1.38E-05
619,0.322946417,3.92E-06
620,0.32296175,1.53E-05
621,0.322972583,1.08E-05
622,0.322977833,5.25E-06
623,0.322990583,1.28E-05
624,0.323000167,9.58E-06
625,0.323003167,3.00E-06
626,0.323012833,9.67E-06
627,0.323021917,9.08E-06
628,0.323023583,1.67E-06
629,0.323034833,1.13E-05
630,0.323041083,6.25E-06
631,0.32304275,1.67E-06
632,0.323053417,1.07E-05
633,0.32306,6.58E-06
634,0.323063083,3.08E-06
635,0.323071583,8.50E-06
636,0.323078167,6.58E-06
637,0.32307875,5.83E-07
638,0.323087083,8.33E-06
639,0.32309325,6.17E-06
640,0.323095583,2.33E-06
641,0.323104583,9.00E-06
642,0.323102917,-1.67E-06
643,0.3231045,1.58E-06
644,0.323113167,8.67E-06
645,0.323118167,5.00E-06
646,0.323121,2.83E-06
647,0.323129417,8.42E-06
648,0.323136,6.58E-06
649,0.323137833,1.83E-06
650,0.323145833,8.00E-06
651,0.32315275,6.92E-06
652,0.323156083,3.33E-06
653,0.323163917,7.83E-06
654,0.323169917,6.00E-06
655,0.323172167,2.25E-06
656,0.32318075,8.58E-06
657,0.32318725,6.50E-06
658,0.323188833,1.58E-06
659,0.323199,1.02E-05
660,0.323203417,4.42E-06
661,0.323206167,2.75E-06
662,0.323215417,9.25E-06
663,0.323221083,5.67E-06
664,0.323221333,2.50E-07
665,0.323229667,8.33E-06
666,0.32323575,6.08E-06
667,0.323238667,2.92E-06
668,0.323247833,9.17E-06
669,0.323253,5.17E-06
670,0.323255417,2.42E-06
671,0.3232645,9.08E-06
672,0.3232705,6.00E-06
673,0.323272667,2.17E-06
674,0.323279917,7.25E-06
675,0.323285667,5.75E-06
676,0.32328675,1.08E-06
677,0.323295417,8.67E-06
678,0.323299417,4.00E-06
679,0.323299917,5.00E-07
680,0.323307167,7.25E-06
681,0.323311583,4.42E-06
682,0.323314667,3.08E-06
683,0.32332325,8.58E-06
684,0.323331,7.75E-06
685,0.323332,1.00E-06
686,0.323341083,9.08E-06
687,0.323348167,7.08E-06
688,0.323348917,7.50E-07
689,0.323357583,8.67E-06
690,0.323366167,8.58E-06
691,0.323368417,2.25E-06
692,0.323377,8.58E-06
693,0.323384667,7.67E-06
694,0.32338625,1.58E-06
695,0.323392833,6.58E-06
696,0.323401917,9.08E-06
697,0.323404,2.08E-06
698,0.323410333,6.33E-06
699,0.323417917,7.58E-06
700,0.323402417,-1.55E-05
701,0.323409,6.58E-06
702,0.323416667,7.67E-06
703,0.32341875,2.08E-06
704,0.323423167,4.42E-06
705,0.32343175,8.58E-06
706,0.323434833,3.08E-06
707,0.323440167,5.33E-06
708,0.323447083,6.92E-06
709,0.323450333,3.25E-06
710,0.323455,4.67E-06
711,0.323460833,5.83E-06
712,0.323465083,4.25E-06
713,0.32347075,5.67E-06
714,0.323477417,6.67E-06
715,0.32347325,-4.17E-06
716,0.323478667,5.42E-06
717,0.323480667,2.00E-06
718,0.32348325,2.58E-06
719,0.3234895,6.25E-06
720,0.32349725,7.75E-06
721,0.323500583,3.33E-06
722,0.323506167,5.58E-06
723,0.323513417,7.25E-06
724,0.323516667,3.25E-06
725,0.323522167,5.50E-06
726,0.323531417,9.25E-06
727,0.323538333,6.92E-06
728,0.3235435,5.17E-06
729,0.323552,8.50E-06
730,0.323555583,3.58E-06
731,0.323559917,4.33E-06
732,0.323567417,7.50E-06
733,0.323570917,3.50E-06
734,0.323576917,6.00E-06
735,0.323589667,1.28E-05
736,0.323591583,1.92E-06
737,0.323596583,5.00E-06
738,0.32360525,8.67E-06
739,0.32360725,2.00E-06
740,0.323616,8.75E-06
741,0.32362375,7.75E-06
742,0.3236255,1.75E-06
743,0.32363,4.50E-06
744,0.323638917,8.92E-06
745,0.323638667,-2.50E-07
746,0.323645667,7.00E-06
747,0.323653,7.33E-06
748,0.323654,10.00E-07
749,0.323662083,8.08E-06
750,0.323669417,7.33E-06
751,0.32367125,1.83E-06
752,0.3236805,9.25E-06
753,0.323687,6.50E-06
754,0.323688,10.00E-07
755,0.323697583,9.58E-06
756,0.3237045,6.92E-06
757,0.32370525,7.50E-07
758,0.32371425,9.00E-06
759,0.323719,4.75E-06
760,0.32372025,1.25E-06
761,0.323728083,7.83E-06
762,0.32373575,7.67E-06
763,0.323737833,2.08E-06
764,0.323737667,-1.66E-07
765,0.32374275,5.08E-06
766,0.323745167,2.42E-06
767,0.323754083,8.92E-06
768,0.32376075,6.67E-06
769,0.323762167,1.42E-06
770,0.323770667,8.50E-06
771,0.32377775,7.08E-06
772,0.32377975,2.00E-06
773,0.3237875,7.75E-06
774,0.323794667,7.17E-06
775,0.32379575,1.08E-06
776,0.323803333,7.58E-06
777,0.323809083,5.75E-06
778,0.323811667,2.58E-06
779,0.323821333,9.67E-06
780,0.323825917,4.58E-06
781,0.323829083,3.17E-06
782,0.32383725,8.17E-06
783,0.323841417,4.17E-06
784,0.323844917,3.50E-06
785,0.32385325,8.33E-06
786,0.323857917,4.67E-06
